# ABAQUS Dynamic Analysis - Stress History
# ODB: tree_H8m_DBH20cm.odb
# f1=0.4271 Hz  U1_tip_max=0.0000 m  U2_tip_max=0.0000 m
# sigma_max_SM2=53.113 MPa  sigma_max_Mres=54.251 MPa
# DAF_SM2=2.951  DAF_Mres=3.014
time_s,SM1_Nm,SM2_Nm,Mres_Nm,sigma_bending_MPa
0.0000,0.0000,0.0000,0.0000,0.000000
0.0500,-1.5449,-14.3353,14.4183,0.010624
0.1000,3.2883,27.6278,27.8229,0.020501
0.1500,47.6290,444.7350,447.2782,0.329567
0.2000,139.7731,1372.8503,1379.9473,1.016784
0.2500,217.8362,2408.9893,2418.8183,1.782254
0.3000,211.5741,3323.7883,3330.5153,2.454018
0.3500,101.6336,4280.1025,4281.3090,3.154590
0.4000,-65.6343,5395.4028,5395.8020,3.975780
0.4500,-223.1826,6774.8462,6778.5213,4.994607
0.5000,-356.7786,8345.8545,8353.4770,6.155079
0.5500,-481.9196,9824.4062,9836.2190,7.247606
0.6000,-593.2250,11114.2285,11130.0490,8.200937
0.6500,-644.7267,12360.5869,12377.3899,9.120013
0.7000,-604.1384,13674.6562,13687.9950,10.085704
0.7500,-522.5334,14956.9482,14966.0730,11.027428
0.8000,-441.9508,16054.2490,16060.3310,11.833709
0.8500,-319.1456,16941.8066,16944.8124,12.485420
0.9000,-101.9772,17665.1484,17665.4428,13.016401
0.9500,230.2798,18240.1348,18241.5883,13.440921
1.0000,662.7836,18618.5684,18630.3615,13.727380
1.0500,1136.0298,18726.3242,18760.7511,13.823455
1.1000,1616.9763,18563.7402,18634.0297,13.730083
1.1500,2117.4531,18217.7246,18340.3680,13.513705
1.2000,2626.9441,17745.3066,17938.6940,13.217740
1.2500,3118.9727,17120.1367,17401.9272,12.822235
1.3000,3581.1245,16286.3086,16675.3801,12.286894
1.3500,4000.1682,15232.6123,15749.0896,11.604377
1.4000,4345.5991,14049.0400,14705.7729,10.835632
1.4500,4593.5454,12851.4541,13647.7299,10.056036
1.5000,4740.7090,11668.4824,12594.7530,9.280172
1.5500,4785.1421,10480.2041,11520.9489,8.488963
1.6000,4752.1021,9255.6514,10404.3047,7.666188
1.6500,4684.3740,7975.8604,9249.7410,6.815472
1.7000,4570.0493,6713.7085,8121.5290,5.984174
1.7500,4349.8140,5579.9048,7075.0420,5.213092
1.8000,3973.1179,4600.6670,6078.7995,4.479032
1.8500,3433.9172,3759.8303,5091.9654,3.751905
1.9000,2792.7163,3073.9751,4153.1419,3.060153
1.9500,2122.5476,2533.3628,3305.0167,2.435230
2.0000,1431.1600,2102.4238,2543.3059,1.873980
2.0500,676.7894,1814.4448,1936.5572,1.426910
2.1000,-173.2910,1710.6445,1719.3995,1.266902
2.1500,-1101.6180,1797.0336,2107.8169,1.553099
2.2000,-2029.2349,2147.3557,2954.4764,2.176942
2.2500,-2875.6262,2793.8672,4009.3541,2.954206
2.3000,-3656.3982,3627.1809,5150.3096,3.794895
2.3500,-4458.2183,4609.1719,6412.5015,4.724913
2.4000,-5286.8438,5747.3882,7809.1733,5.754021
2.4500,-6046.8501,6921.8755,9191.1238,6.772281
2.5000,-6690.4854,8114.7212,10517.1904,7.749365
2.5500,-7264.6162,9477.3779,11941.3291,8.798711
2.6000,-7821.1973,11034.5693,13525.2670,9.965801
2.6500,-8363.0332,12674.0000,15184.5514,11.188409
2.7000,-8831.7695,14268.3545,16780.5272,12.364370
2.7500,-9149.1104,15707.1230,18177.4568,13.393667
2.8000,-9314.9639,17010.0586,19393.5723,14.289736
2.8500,-9412.5234,18296.3145,20575.4883,15.160605
2.9000,-9473.4414,19658.5547,21822.1187,16.079158
2.9500,-9426.3262,21104.2266,23113.7190,17.030845
3.0000,-9243.3350,22470.5000,24297.3787,17.903000
3.0500,-8976.5078,23601.0371,25250.4781,18.605270
3.1000,-8665.3350,24626.7188,26106.7674,19.236209
3.1500,-8337.9619,25772.1074,27087.3242,19.958711
3.2000,-7962.5942,27015.0566,28164.0940,20.752105
3.2500,-7461.4443,28097.5938,29071.4280,21.420655
3.3000,-6865.6675,28790.8477,29598.1469,21.808756
3.3500,-6292.3823,29135.3633,29807.1043,21.962722
3.4000,-5807.1104,29331.8945,29901.2135,22.032064
3.4500,-5392.5142,29403.5977,29893.9921,22.026744
3.5000,-4979.0923,29167.7148,29589.6426,21.802490
3.5500,-4504.2139,28492.5469,28846.3719,21.254827
3.6000,-3970.6316,27410.6328,27696.7274,20.407736
3.6500,-3412.3259,26041.1758,26263.7926,19.351909
3.7000,-2860.8257,24485.3418,24651.9023,18.164223
3.7500,-2383.4067,22799.0449,22923.2868,16.890530
3.8000,-2031.6394,21040.1016,21137.9619,15.575051
3.8500,-1764.1840,19254.5703,19335.2223,14.246742
3.9000,-1510.6888,17432.9238,17498.2575,12.893214
3.9500,-1278.5464,15565.8096,15618.2300,11.507956
4.0000,-1157.5238,13694.6719,13743.5039,10.126605
4.0500,-1212.6646,11872.7715,11934.5405,8.793709
4.1000,-1400.0042,10155.0283,10251.0786,7.553286
4.1500,-1618.7798,8585.8184,8737.0890,6.437736
4.2000,-1836.2944,7158.3296,7390.1055,5.445240
4.2500,-2119.3782,5888.6851,6258.4643,4.611414
4.3000,-2532.8096,4859.7246,5480.1503,4.037931
4.3500,-3047.3267,4123.4185,5127.2585,3.777910
4.4000,-3561.1167,3689.9800,5128.1092,3.778537
4.4500,-4026.0823,3567.2312,5379.0777,3.963457
4.5000,-4525.4692,3690.4077,5839.4333,4.302661
4.5500,-5168.1675,3936.3381,6496.5155,4.786817
4.6000,-5952.4468,4309.7915,7348.8724,5.414858
4.6500,-6777.8071,4955.1646,8395.9708,6.186390
4.7000,-7546.9556,5907.3403,9584.0079,7.061770
4.7500,-8236.8818,7015.6221,10819.6661,7.972238
4.8000,-8905.3379,8152.6191,12073.5348,8.896124
4.8500,-9616.8213,9342.7324,13407.8298,9.879270
4.9000,-10335.8721,10645.9717,14838.0243,10.933078
4.9500,-10947.2686,12007.4131,16248.7125,11.972513
5.0000,-11380.1055,13291.1270,17497.4528,12.892621
5.0500,-11649.6934,14417.5986,18535.9787,13.657836
5.1000,-11816.0664,15426.7793,19432.0597,14.318094
5.1500,-11909.8271,16417.0254,20282.0784,14.944412
5.2000,-11867.1631,17410.2520,21070.0364,15.525002
5.2500,-11599.4385,18315.3105,21679.4274,15.974019
5.3000,-11113.1660,19037.6953,22043.9629,16.242619
5.3500,-10491.3662,19589.9746,22222.4182,16.374110
5.4000,-9797.6885,20075.4746,22338.7417,16.459820
5.4500,-9050.7090,20552.5371,22457.1172,16.547043
5.5000,-8242.6426,21001.5566,22561.1732,16.623714
5.5500,-7333.4810,21369.4766,22592.7969,16.647015
5.6000,-6287.0649,21588.8242,22485.6514,16.568067
5.6500,-5139.8125,21714.4727,22314.4795,16.441943
5.7000,-3981.6753,21850.6562,22210.4686,16.365305
5.7500,-2865.7017,21957.7383,22143.9499,16.316292
5.8000,-1786.8932,22032.1914,22104.5345,16.287250
5.8500,-763.2307,22121.2734,22134.4361,16.309282
5.9000,164.6943,22155.2676,22155.8797,16.325082
5.9500,1036.2484,22108.3945,22132.6663,16.307978
6.0000,1923.8849,22020.5098,22104.3929,16.287145
6.0500,2821.4741,21854.7461,22036.1213,16.236841
6.1000,3683.5962,21597.6113,21909.4887,16.143534
6.1500,4447.1309,21284.8945,21744.5098,16.021973
6.2000,5041.5317,20866.4688,21466.8712,15.817401
6.2500,5479.5767,20300.5234,21027.0543,15.493332
6.3000,5821.3169,19681.0254,20523.9005,15.122594
6.3500,6065.7900,19015.6699,19959.6972,14.706873
6.4000,6181.6367,18160.7598,19183.9993,14.135316
6.4500,6198.0059,17100.6797,18189.2419,13.402351
6.5000,6170.9805,15966.4092,17117.4537,12.612627
6.5500,6048.2798,14921.2520,16100.4798,11.863291
6.6000,5702.5498,14064.1904,15176.3147,11.182340
6.6500,5135.2666,13247.3574,14207.8655,10.468759
6.7000,4489.5552,12265.0391,13060.9069,9.623648
6.7500,3854.5171,11197.9141,11842.7438,8.726070
6.8000,3166.5242,10288.0420,10764.3246,7.931460
6.8500,2287.9673,9657.7061,9925.0229,7.313039
6.9000,1164.7795,9260.8945,9333.8566,6.877451
6.9500,-71.1548,8944.1670,8944.4500,6.590525
7.0000,-1219.9849,8581.3203,8667.6076,6.386540
7.0500,-2253.0659,8235.3643,8538.0051,6.291045
7.1000,-3296.0679,8080.1411,8726.5539,6.429973
7.1500,-4427.1860,8153.7256,9278.1042,6.836371
7.2000,-5593.2578,8350.3545,10050.5200,7.405509
7.2500,-6610.8618,8573.7363,10826.4698,7.977251
7.3000,-7328.1416,8796.9453,11449.3627,8.436216
7.3500,-7809.5425,9090.9570,11984.7592,8.830711
7.4000,-8249.5371,9513.4873,12592.1127,9.278227
7.4500,-8785.8154,9965.9287,13285.7174,9.789294
7.5000,-9362.6699,10322.4941,13936.0494,10.268478
7.5500,-9765.2168,10594.4248,14408.3759,10.616501
7.6000,-9849.3779,10842.1436,14647.9460,10.793023
7.6500,-9681.4814,11045.2559,14687.7078,10.822321
7.7000,-9460.4678,11198.9258,14660.0269,10.801925
7.7500,-9285.8105,11367.0801,14677.7651,10.814995
7.8000,-9039.5312,11561.7920,14676.1085,10.813774
7.8500,-8571.8135,11756.4043,14549.5370,10.720513
7.9000,-7893.5928,11924.8740,14300.7492,10.537199
7.9500,-7151.0083,12026.2119,13991.6651,10.309457
8.0000,-6462.2075,12091.0605,13709.6270,10.101643
8.0500,-5777.4199,12182.2852,13482.8281,9.934531
8.1000,-4967.0000,12243.1533,13212.3386,9.735227
8.1500,-4018.5520,12190.1729,12835.4616,9.457533
8.2000,-3051.1040,12052.4248,12432.6256,9.160712
8.2500,-2207.9351,11916.6377,12119.4567,8.929960
8.3000,-1533.2042,11842.2207,11941.0597,8.798512
8.3500,-936.4888,11791.0674,11828.1986,8.715353
8.4000,-336.3185,11665.3760,11670.2231,8.598952
8.4500,264.9818,11449.0381,11452.1041,8.438236
8.5000,824.1729,11203.8262,11234.0991,8.277604
8.5500,1274.4005,11025.2754,11098.6843,8.177826
8.6000,1596.4484,11022.1943,11137.2086,8.206212
8.6500,1848.8257,11160.5068,11312.6067,8.335450
8.7000,2069.0708,11279.6143,11467.8137,8.449811
8.7500,2256.0876,11378.3838,11599.8944,8.547132
8.8000,2409.7935,11599.8008,11847.4674,8.729551
8.8500,2492.9019,11939.1836,12196.6661,8.986850
8.9000,2476.3406,12232.9199,12481.0493,9.196392
8.9500,2414.5908,12343.5400,12577.4890,9.267452
9.0000,2355.1108,12285.5635,12509.2612,9.217179
9.0500,2265.7849,12236.0342,12444.0473,9.169128
9.1000,2103.3533,12333.9785,12512.0390,9.219226
9.1500,1873.7087,12527.2422,12666.5931,9.333106
9.2000,1625.4707,12676.0488,12779.8423,9.416551
9.2500,1381.9934,12688.6641,12763.7025,9.404659
9.3000,1098.7307,12557.4590,12605.4348,9.288043
9.3500,759.4531,12336.3857,12359.7404,9.107008
9.4000,397.8917,12081.3135,12087.8639,8.906682
9.4500,5.0038,11781.0293,11781.0304,8.680598
9.5000,-422.7152,11371.6963,11379.5503,8.384776
9.5500,-819.8358,10814.1855,10845.2174,7.991065
9.6000,-1110.4930,10150.8516,10211.4143,7.524060
9.6500,-1286.3660,9526.9395,9613.3924,7.083421
9.7000,-1396.6962,9030.8457,9138.2129,6.733295
9.7500,-1441.9066,8541.6846,8662.5325,6.382800
9.8000,-1387.3210,7935.8945,8056.2449,5.936070
9.8500,-1268.3821,7284.3569,7393.9603,5.448080
9.9000,-1152.6177,6703.8564,6802.2216,5.012070
9.9500,-1041.2474,6194.1099,6281.0185,4.628033
10.0000,-851.8320,5696.6621,5759.9980,4.244130
10.0500,-515.1485,5186.3267,5211.8483,3.840238
10.1000,-85.9806,4701.7236,4702.5097,3.464943
10.1500,359.4926,4374.4365,4389.1833,3.234075
10.2000,870.1900,4313.7798,4400.6734,3.242541
10.2500,1490.0477,4460.7314,4703.0168,3.465317
10.3000,2140.4336,4671.2036,5138.2486,3.786008
10.3500,2758.0608,4874.7031,5600.8597,4.126873
10.4000,3354.0032,5156.9561,6151.7098,4.532755
10.4500,3963.2947,5712.9907,6953.1265,5.123261
10.5000,4613.2324,6639.9458,8085.2207,5.957421
10.5500,5204.2090,7819.8462,9393.2841,6.921239
10.6000,5576.8130,9100.3594,10673.2087,7.864324
10.6500,5747.7500,10422.0957,11901.9624,8.769704
10.7000,5843.1470,11745.4863,13118.6438,9.666190
10.7500,5892.7036,13147.1357,14407.3292,10.615730
10.8000,5790.6304,14753.4209,15849.1271,11.678088
10.8500,5396.9531,16449.3711,17312.1031,12.756050
10.9000,4686.1626,18065.6816,18663.5734,13.751852
10.9500,3738.3108,19601.2441,19954.5418,14.703074
11.0000,2638.5439,21057.3516,21222.0161,15.636985
11.0500,1479.6891,22443.3652,22492.0902,16.572812
11.1000,324.9155,23802.7363,23804.9538,17.540167
11.1500,-867.4465,25074.6250,25089.6250,18.486749
11.2000,-2150.2371,26178.8223,26266.9803,19.354258
11.2500,-3466.1545,27122.9531,27343.5333,20.147493
11.3000,-4698.6250,27897.7090,28290.6211,20.845334
11.3500,-5788.2197,28455.1855,29037.9247,21.395969
11.4000,-6796.7837,28779.6992,29571.3942,21.789044
11.4500,-7832.5391,28842.1934,29886.7995,22.021444
11.5000,-8873.5322,28578.5117,29924.4199,22.049164
11.5500,-9740.0449,27983.2324,29629.8797,21.832138
11.6000,-10291.1270,27120.0801,29006.9998,21.373182
11.6500,-10606.1191,26038.3457,28115.5688,20.716351
11.7000,-10871.2070,24733.9160,27017.5821,19.907323
11.7500,-11132.7725,23181.7031,25716.3369,18.948528
11.8000,-11308.3389,21367.4219,24175.3024,17.813050
11.8500,-11326.2197,19330.4219,22404.2064,16.508056
11.9000,-11139.9922,17235.5664,20522.2848,15.121403
11.9500,-10745.6914,15229.0273,18638.4859,13.733367
12.0000,-10190.8301,13262.6895,16725.7870,12.324036
12.0500,-9502.5488,11266.6650,14738.9340,10.860066
12.1000,-8707.6543,9307.9160,12746.0011,9.391616
12.1500,-7868.5503,7479.6587,10856.3059,7.999235
12.2000,-7007.4580,5784.2271,9086.3497,6.695081
12.2500,-6090.9370,4158.9902,7375.4128,5.434414
12.3000,-5081.4995,2583.2432,5700.4195,4.200231
12.3500,-3961.3091,1153.9338,4125.9584,3.040124
12.4000,-2772.6458,72.4390,2773.5919,2.043661
12.4500,-1592.3871,-511.0560,1672.3860,1.232262
12.5000,-439.8259,-644.9192,780.6200,0.575183
12.5500,680.9454,-480.3079,833.2961,0.613996
12.6000,1713.1410,-71.2871,1714.6235,1.263383
12.6500,2619.1108,718.2921,2715.8213,2.001094
12.7000,3404.3210,2087.9727,3993.6239,2.942616
12.7500,4058.2874,4009.9929,5705.2379,4.203782
12.8000,4567.0972,6148.6680,7659.2751,5.643572
12.8500,4912.7104,8180.7295,9542.4870,7.031176
12.9000,5029.8369,10142.8516,11321.5148,8.342014
12.9500,4883.4102,12349.9551,13280.4023,9.785378
13.0000,4529.6099,15017.7217,15685.9596,11.557861
13.0500,4011.1755,17989.0898,18430.8677,13.580387
13.1000,3338.0886,20849.7266,21115.2536,15.558319
13.1500,2540.3669,23354.3809,23492.1385,17.309676
13.2000,1615.7345,25600.8320,25651.7679,18.900952
13.2500,544.0770,27800.8105,27806.1340,20.488350
13.3000,-645.9199,30019.1289,30026.0772,22.124068
13.3500,-1905.6331,32112.2715,32168.7646,23.702861
13.4000,-3210.4619,33850.5273,34002.4303,25.053958
13.4500,-4560.2129,35095.3164,35390.3486,26.076615
13.5000,-5958.1235,35908.2500,36399.1985,26.819965
13.5500,-7376.2778,36425.4414,37164.7986,27.384081
13.6000,-8720.1572,36626.4883,37650.2428,27.741770
13.6500,-9900.1504,36384.5586,37707.4141,27.783895
13.7000,-10950.4492,35635.0391,37279.5969,27.468667
13.7500,-11950.1953,34357.2852,36376.2314,26.803042
13.8000,-12862.8320,32584.8574,35031.7767,25.812409
13.8500,-13544.8994,30467.6406,33342.7867,24.567914
13.9000,-13882.8164,28176.6523,31411.0861,23.144582
13.9500,-13893.5381,25760.4414,29268.2549,21.565683
14.0000,-13677.8760,23127.0996,26869.0720,19.797896
14.0500,-13297.0078,20228.3633,24207.3769,17.836684
14.1000,-12716.9297,17239.2754,21422.2528,15.784525
14.1500,-11863.5527,14441.7676,18689.7976,13.771174
14.2000,-10732.2812,11965.1328,16073.1535,11.843157
14.2500,-9409.4268,9671.1045,13493.2418,9.942204
14.3000,-7973.6362,7345.2280,10841.1830,7.988092
14.3500,-6427.7480,4990.6733,8137.7371,5.996116
14.4000,-4731.0083,2787.7622,5491.2710,4.046125
14.4500,-2871.9402,890.9415,3006.9615,2.215615
14.5000,-918.4387,-663.9194,1133.2779,0.835031
14.5500,1021.0797,-1979.2800,2227.1401,1.641020
14.6000,2915.5154,-3094.4019,4251.5353,3.132652
14.6500,4814.0449,-3846.7673,6162.1950,4.540481
14.7000,6676.7798,-4100.7295,7835.5198,5.773434
14.7500,8352.8105,-3909.7805,9222.5716,6.795453
14.8000,9755.4541,-3443.4236,10345.3396,7.622740
14.8500,10894.9180,-2805.6624,11250.3768,8.289598
14.9000,11799.7666,-1900.0299,11951.7616,8.806398
14.9500,12499.9131,-584.4314,12513.5681,9.220353
15.0000,12989.4854,1124.3713,13038.0574,9.606811
15.0500,13204.0488,3065.2546,13555.1721,9.987836
15.1000,13078.4453,5068.3965,14026.2031,10.334905
15.1500,12607.4902,7104.2720,14471.3334,10.662890
15.2000,11845.9746,9288.5127,15053.3578,11.091742
15.2500,10858.1738,11681.1582,15948.3352,11.751187
15.3000,9682.9297,14141.1953,17138.6269,12.628228
15.3500,8296.1523,16457.2090,18430.0264,13.579768
15.4000,6646.0376,18547.3516,19702.1335,14.517092
15.4500,4768.5791,20503.1582,21050.3882,15.510525
15.5000,2765.9993,22480.0898,22649.6179,16.688883
15.5500,746.4293,24463.2422,24474.6272,18.033601
15.6000,-1206.1855,26174.5547,26202.3319,19.306623
15.6500,-3078.4546,27365.3418,27537.9523,20.290746
15.7000,-4872.4775,28112.8066,28531.9283,21.023136
15.7500,-6574.7979,28694.8887,29438.4885,21.691116
15.8000,-8187.3843,29262.7656,30386.5548,22.389678
15.8500,-9698.0078,29687.5684,31231.4436,23.012216
15.9000,-11040.1113,29704.9727,31690.2108,23.350249
15.9500,-12114.3438,29203.4004,31616.3869,23.295853
16.0000,-12871.2822,28355.6289,31140.1926,22.944980
16.0500,-13322.5059,27459.3477,30520.5658,22.488421
16.1000,-13480.8643,26611.4473,29831.2391,21.980505
16.1500,-13344.0830,25626.5645,28892.6523,21.288928
16.2000,-12916.9150,24345.1836,27559.6564,20.306739
16.2500,-12240.5977,22851.2695,25923.2087,19.100957
16.3000,-11357.3770,21323.5684,24159.5650,17.801455
16.3500,-10269.2285,19822.4004,22324.5294,16.449348
16.4000,-8988.7480,18256.8906,20349.7333,14.994262
16.4500,-7553.5688,16472.7637,18122.0403,13.352835
16.5000,-5963.7915,14413.4502,15598.5370,11.493446
16.5500,-4223.4521,12214.9434,12924.4880,9.523130
16.6000,-2414.9314,10063.5996,10349.2961,7.625656
16.6500,-595.1177,8064.4106,8086.3394,5.958245
16.7000,1268.4155,6235.8975,6363.5914,4.688875
16.7500,3183.3022,4473.7827,5490.7326,4.045728
16.8000,5101.5166,2642.9380,5745.4846,4.233436
16.8500,6942.3140,747.4664,6982.4372,5.144858
16.9000,8576.3379,-1068.7054,8642.6676,6.368163
16.9500,9932.5352,-2601.3877,10267.5446,7.565419
17.0000,11071.1191,-3731.8569,11683.1689,8.608491
17.0500,12067.0771,-4549.4956,12896.2111,9.502295
17.1000,12927.9160,-5144.5249,13913.9193,10.252171
17.1500,13599.1543,-5379.7847,14624.6053,10.775825
17.2000,13986.2754,-5140.8193,14901.1383,10.979582
17.2500,14042.1973,-4535.8286,14756.5933,10.873078
17.3000,13822.9834,-3657.8152,14298.7581,10.535732
17.3500,13393.5908,-2506.9023,13626.1819,10.040158
17.4000,12732.5000,-1060.6099,12776.5977,9.414161
17.4500,11765.1514,728.4608,11787.6818,8.685499
17.5000,10472.6084,2777.3782,10834.6369,7.983269
17.5500,8947.5508,4876.2637,10190.0251,7.508300
17.6000,7296.3838,6903.7617,10044.8565,7.401336
17.6500,5537.4688,8899.6699,10481.7787,7.723273
17.7000,3619.4121,11020.8789,11599.9964,8.547207
17.7500,1497.8145,13329.3779,13413.2682,9.883277
17.8000,-734.7365,15628.8184,15646.0794,11.528476
17.8500,-2865.9536,17697.2305,17927.7901,13.209706
17.9000,-4797.8169,19549.7637,20129.8859,14.832272
17.9500,-6602.5259,21340.3926,22338.4356,16.459595
18.0000,-8375.4727,23107.3066,24578.3678,18.110040
18.0500,-10143.6699,24711.4160,26712.3215,19.682398
18.1000,-11810.6396,25993.9941,28551.3387,21.037438
18.1500,-13219.9551,26954.4883,30021.8529,22.120955
18.2000,-14320.8760,27752.4688,31229.5855,23.010847
18.2500,-15174.8115,28447.6621,32241.9662,23.756798
18.3000,-15838.0957,28871.0371,32929.9569,24.263729
18.3500,-16308.4980,28877.6152,33164.4956,24.436544
18.4000,-16536.3594,28546.9277,32990.5784,24.308396
18.4500,-16451.6348,28085.6016,32549.3057,23.983254
18.5000,-16009.6924,27526.2129,31843.4082,23.463129
18.5500,-15237.7520,26620.2812,30672.9271,22.600685
18.6000,-14226.0674,25198.4453,28936.8734,21.321511
18.6500,-13057.6514,23401.9961,26798.4268,19.745843
18.7000,-11741.3730,21495.8887,24493.5312,18.047530
18.7500,-10231.0234,19604.9238,22113.9521,16.294189
18.8000,-8520.2246,17616.7852,19568.9894,14.418988
18.8500,-6661.1514,15411.9863,16789.8856,12.371265
18.9000,-4704.1763,13041.8037,13864.2677,10.215587
18.9500,-2701.0168,10600.5234,10939.2225,8.060330
19.0000,-704.0513,8164.4282,8194.7286,6.038109
19.0500,1259.6552,5770.0034,5905.9013,4.351636
19.1000,3160.1458,3367.0676,4617.7555,3.402494
19.1500,4963.7710,928.0974,5049.7908,3.720829
19.2000,6644.8047,-1455.7076,6802.3903,5.012195
19.2500,8170.7412,-3641.1462,8945.3316,6.591175
