# ABAQUS Dynamic Analysis - Stress History
# ODB: tree_H6m_DBH15cm.odb
# f1=0.4953 Hz  U1_tip_max=0.0000 m  U2_tip_max=0.0000 m
# sigma_max_SM2=70.156 MPa  sigma_max_Mres=70.297 MPa
# DAF_SM2=3.898  DAF_Mres=3.905
time_s,SM1_Nm,SM2_Nm,Mres_Nm,sigma_bending_MPa
0.0000,0.0000,0.0000,0.0000,0.000000
0.0500,0.3506,2.6268,2.6501,0.004629
0.1000,12.3471,92.9662,93.7826,0.163797
0.1500,53.4860,417.0569,420.4726,0.734379
0.2000,106.9441,889.8684,896.2716,1.565389
0.2500,132.8804,1320.0093,1326.6807,2.317123
0.3000,116.6490,1781.0012,1784.8172,3.117284
0.3500,71.3618,2386.7681,2387.8346,4.170488
0.4000,17.9090,3094.8860,3094.9378,5.405483
0.4500,-46.2794,3804.5820,3804.8635,6.645408
0.5000,-128.9624,4454.7998,4456.6661,7.783818
0.5500,-206.5404,5101.5938,5105.7730,8.917520
0.6000,-244.6688,5784.6196,5789.7916,10.112197
0.6500,-228.6996,6441.5293,6445.5879,11.257582
0.7000,-188.7315,6982.3940,6984.9442,12.199598
0.7500,-157.7922,7375.3789,7377.0667,12.884462
0.8000,-103.9986,7696.0386,7696.7412,13.442792
0.8500,17.2193,7993.7495,7993.7681,13.961566
0.9000,194.4029,8179.6221,8181.9319,14.290205
0.9500,397.6185,8163.3086,8172.9865,14.274581
1.0000,621.2075,7973.0298,7997.1934,13.967549
1.0500,879.5061,7689.2290,7739.3652,13.517237
1.1000,1175.8551,7338.6743,7432.2793,12.980894
1.1500,1473.0166,6877.9004,7033.8675,12.285046
1.2000,1733.4076,6283.1230,6517.8476,11.383788
1.2500,1962.5453,5604.0454,5937.7529,10.370620
1.3000,2180.4583,4892.4932,5356.3875,9.355232
1.3500,2373.3274,4156.0347,4785.9489,8.358929
1.4000,2497.2043,3399.6982,4218.2908,7.367482
1.4500,2538.0913,2648.7983,3668.5202,6.407277
1.5000,2517.5588,1947.7731,3183.0681,5.559408
1.5500,2449.2090,1329.7284,2786.8983,4.867475
1.6000,2336.5227,777.9738,2462.6371,4.301134
1.6500,2178.0417,279.0606,2195.8462,3.835169
1.7000,1966.6449,-125.9291,1970.6725,3.441891
1.7500,1696.6375,-394.7282,1741.9498,3.042413
1.8000,1361.3170,-528.5186,1460.3136,2.550520
1.8500,964.9875,-532.5851,1102.2014,1.925057
1.9000,531.9730,-396.1091,663.2478,1.158400
1.9500,81.1717,-134.7504,157.3103,0.274751
2.0000,-384.1358,223.7732,444.5613,0.776451
2.0500,-863.2784,681.3596,1099.7729,1.920815
2.1000,-1348.6083,1238.1613,1830.7888,3.197576
2.1500,-1819.5652,1899.7095,2630.5348,4.594377
2.2000,-2248.4773,2688.6587,3504.9302,6.121558
2.2500,-2623.0574,3567.9004,4428.3567,7.734374
2.3000,-2960.5039,4478.9565,5368.9510,9.377175
2.3500,-3268.2427,5425.9658,6334.2336,11.063096
2.4000,-3508.4841,6375.3530,7276.9903,12.709673
2.4500,-3655.9795,7245.9087,8115.9952,14.175043
2.5000,-3748.7036,8051.2559,8881.1880,15.511495
2.5500,-3822.7097,8847.4609,9637.9808,16.833276
2.6000,-3856.2861,9608.0557,10353.0515,18.082187
2.6500,-3813.8345,10256.1094,10942.2627,19.111278
2.7000,-3695.5110,10739.3574,11357.4028,19.836344
2.7500,-3530.4165,11071.9971,11621.2288,20.297130
2.8000,-3339.7151,11288.8281,11772.4822,20.561303
2.8500,-3116.7200,11389.5850,11808.3271,20.623908
2.9000,-2833.3057,11393.8506,11740.8455,20.506048
2.9500,-2493.7954,11321.8906,11593.2835,20.248322
3.0000,-2159.5432,11140.0918,11347.4787,19.819010
3.0500,-1857.3235,10863.4395,11021.0692,19.248918
3.1000,-1559.7362,10582.7646,10697.0877,18.683066
3.1500,-1254.7124,10331.3516,10407.2632,18.176871
3.2000,-950.7981,10038.1338,10083.0624,17.610636
3.2500,-674.6746,9628.1807,9651.7899,16.857395
3.3000,-456.0764,9139.1074,9150.4803,15.981829
3.3500,-298.8719,8665.2627,8670.4153,15.143369
3.4000,-199.0127,8184.0571,8186.4765,14.298142
3.4500,-160.8430,7582.2637,7583.9695,13.245830
3.5000,-183.9503,6850.9092,6853.3783,11.969811
3.5500,-252.4321,6099.7314,6104.9526,10.662643
3.6000,-337.8267,5381.9351,5392.5274,9.418353
3.6500,-420.4000,4633.5000,4652.5325,8.125910
3.7000,-525.5766,3822.5044,3858.4674,6.739031
3.7500,-701.9835,3064.9675,3144.3293,5.491748
3.8000,-947.1226,2497.0461,2670.6330,4.664411
3.8500,-1207.2314,2099.4790,2421.8216,4.229848
3.9000,-1456.2806,1767.5685,2290.2078,3.999977
3.9500,-1733.9529,1499.0054,2292.0754,4.003239
4.0000,-2077.1968,1385.7841,2497.0270,4.361198
4.0500,-2449.7607,1460.7030,2852.1888,4.981508
4.1000,-2788.5747,1667.3654,3249.0393,5.674630
4.1500,-3088.0413,1955.5922,3655.1798,6.383977
4.2000,-3391.7344,2347.9658,4125.1431,7.204795
4.2500,-3708.7004,2902.9971,4709.7612,8.225863
4.3000,-3987.9868,3614.1167,5381.9958,9.399959
4.3500,-4184.3140,4412.8481,6081.2591,10.621261
4.4000,-4310.2441,5275.9810,6812.7953,11.898931
4.4500,-4415.5405,6223.4937,7630.7845,13.327595
4.5000,-4521.9585,7210.0146,8510.7238,14.864458
4.5500,-4600.7246,8141.6494,9351.6374,16.333161
4.6000,-4626.3901,9008.6758,10127.1775,17.687686
4.6500,-4615.3867,9861.0859,10887.7367,19.016045
4.7000,-4587.8203,10661.1738,11606.4087,20.271246
4.7500,-4528.5942,11308.8184,12181.8528,21.276292
4.8000,-4419.6426,11789.1992,12590.4114,21.989862
4.8500,-4271.2007,12161.3838,12889.6242,22.512454
4.9000,-4094.2659,12408.4229,13066.4445,22.821281
4.9500,-3880.8835,12426.6367,13018.5467,22.737625
5.0000,-3618.1123,12177.8076,12703.9260,22.188122
5.0500,-3305.7620,11736.6777,12193.3452,21.296364
5.1000,-2962.0312,11176.0254,11561.8845,20.193482
5.1500,-2594.3284,10481.7324,10798.0208,18.859351
5.2000,-2186.0278,9611.1611,9856.6290,17.215158
5.2500,-1736.7565,8594.7275,8768.4471,15.314587
5.3000,-1277.0677,7518.6328,7626.3190,13.319796
5.3500,-831.8290,6439.2549,6492.7608,11.339972
5.4000,-403.8023,5355.3818,5370.5839,9.380027
5.4500,-5.1842,4266.4712,4266.4743,7.451638
5.5000,340.1567,3240.9558,3258.7576,5.691604
5.5500,637.6142,2340.0278,2425.3416,4.235996
5.6000,910.7004,1564.3381,1810.1185,3.161474
5.6500,1150.2212,932.8713,1480.9651,2.586589
5.7000,1320.0497,457.1950,1396.9819,2.439908
5.7500,1408.7600,153.4499,1417.0927,2.475032
5.8000,1424.3826,88.7570,1427.1452,2.492589
5.8500,1350.7808,258.8110,1375.3515,2.402129
5.9000,1185.7157,597.9906,1327.9738,2.319381
5.9500,983.2643,1098.7494,1474.4691,2.575243
6.0000,783.2103,1770.4095,1935.9154,3.381185
6.0500,573.4529,2591.9954,2654.6729,4.636536
6.1000,338.4688,3529.9976,3546.1872,6.193616
6.1500,74.8974,4540.7588,4541.3764,7.931770
6.2000,-205.6055,5579.3267,5583.1138,9.751223
6.2500,-484.8918,6642.4126,6660.0875,11.632218
6.3000,-764.7070,7734.4658,7772.1772,13.574545
6.3500,-1051.1849,8764.8936,8827.7035,15.418081
6.4000,-1317.9022,9639.2607,9728.9369,16.992136
6.4500,-1510.3469,10385.7803,10495.0264,18.330155
6.5000,-1623.5138,11073.2197,11191.6036,19.546766
6.5500,-1736.2124,11715.0264,11842.9843,20.684439
6.6000,-1886.8789,12232.7295,12377.3981,21.617823
6.6500,-1996.0099,12529.0215,12687.0184,22.158592
6.7000,-1995.8607,12634.1787,12790.8534,22.339946
6.7500,-1939.3701,12647.5742,12795.4011,22.347888
6.8000,-1917.8633,12573.0684,12718.5002,22.213577
6.8500,-1936.2180,12342.4229,12493.3719,21.820377
6.9000,-1922.3116,11943.7891,12097.4948,21.128956
6.9500,-1831.1058,11429.3721,11575.1240,20.216606
7.0000,-1703.2131,10823.1621,10956.3577,19.135896
7.0500,-1600.9836,10105.3086,10231.3445,17.869619
7.1000,-1505.6774,9267.2500,9388.7692,16.398014
7.1500,-1362.5365,8334.9355,8445.5702,14.750664
7.2000,-1165.4230,7360.8828,7452.5705,13.016334
7.2500,-930.9177,6371.1636,6438.8146,11.245752
7.3000,-672.1578,5356.2437,5398.2536,9.428354
7.3500,-396.1203,4327.8955,4345.9856,7.590509
7.4000,-130.4872,3304.1052,3306.6809,5.775304
7.4500,73.7038,2289.9734,2291.1592,4.001639
7.5000,216.0003,1309.5392,1327.2336,2.318088
7.5500,342.5974,401.9334,528.1321,0.922412
7.6000,476.2844,-433.0431,643.7182,1.124290
7.6500,586.1970,-1212.8773,1347.1074,2.352799
7.7000,624.8675,-1877.9696,1979.1991,3.456783
7.7500,607.7338,-2347.8652,2425.2446,4.235826
7.8000,581.8703,-2624.8501,2688.5705,4.695740
7.8500,534.1425,-2749.8088,2801.2063,4.892465
7.9000,417.2306,-2734.2419,2765.8923,4.830787
7.9500,224.2353,-2545.7776,2555.6340,4.463559
8.0000,3.6303,-2149.3684,2149.3715,3.753998
8.0500,-200.2967,-1587.5160,1600.1018,2.794668
8.1000,-415.3926,-940.8805,1028.4975,1.796329
8.1500,-688.4541,-210.9453,720.0465,1.257602
8.2000,-1008.6072,653.9132,1202.0362,2.099424
8.2500,-1343.5664,1656.1788,2132.6273,3.724754
8.3000,-1682.1782,2725.3916,3202.7305,5.593749
8.3500,-2039.4219,3786.7578,4301.0204,7.511974
8.4000,-2420.3335,4843.6016,5414.6551,9.457000
8.4500,-2774.2849,5922.9429,6540.4823,11.423321
8.5000,-3057.4338,6987.5522,7627.1743,13.321289
8.5500,-3288.7021,8003.6211,8652.9482,15.112861
8.6000,-3489.6311,8983.3369,9637.3164,16.832116
8.6500,-3643.6711,9904.9854,10553.9127,18.433003
8.7000,-3719.3013,10725.2969,11351.8807,19.826699
8.7500,-3693.1748,11451.6602,12032.4586,21.015366
8.8000,-3575.9009,12079.5273,12597.7001,22.002593
8.8500,-3399.1074,12529.5684,12982.4503,22.674580
8.9000,-3156.9688,12726.2021,13111.9286,22.900722
8.9500,-2819.0430,12677.1318,12986.7885,22.682157
9.0000,-2396.1086,12451.6064,12680.0568,22.146433
9.0500,-1933.7552,12084.2549,12237.9992,21.374355
9.1000,-1449.3186,11542.7900,11633.4228,20.318428
9.1500,-918.0122,10818.1543,10857.0350,18.962423
9.2000,-332.2508,9957.4326,9962.9742,17.400895
9.2500,253.4136,8989.2900,8992.8613,15.706539
9.3000,790.6697,7886.4600,7925.9958,13.843198
9.3500,1305.5071,6632.1167,6759.3876,11.805651
9.4000,1812.5266,5280.4966,5582.9111,9.750869
9.4500,2261.3889,3901.9856,4509.9192,7.876828
9.5000,2622.0171,2515.1497,3633.3114,6.345783
9.5500,2934.3865,1111.7114,3137.9175,5.480550
9.6000,3244.2688,-258.5331,3254.5536,5.684261
9.6500,3521.2236,-1488.5389,3822.9261,6.676956
9.7000,3717.2485,-2550.6033,4508.1608,7.873757
9.7500,3856.9626,-3501.8308,5209.5086,9.098700
9.8000,3964.1848,-4324.7368,5866.6950,10.246513
9.8500,3992.7627,-4924.5444,6339.8180,11.072849
9.9000,3897.7656,-5281.6836,6564.2028,11.464750
9.9500,3712.1758,-5467.7227,6608.8002,11.542642
10.0000,3509.4763,-5501.7500,6525.7702,11.397625
10.0500,3289.5881,-5316.6050,6252.0140,10.919494
10.1000,2989.3430,-4859.5664,5705.3972,9.964797
10.1500,2630.2119,-4142.3276,4906.8211,8.570039
10.2000,2304.4158,-3217.3831,3957.5100,6.912014
10.2500,2005.9500,-2122.0056,2920.0587,5.100047
10.3000,1652.1727,-867.0977,1865.8867,3.258876
10.3500,1243.7834,529.2531,1351.7049,2.360829
10.4000,861.8101,2050.0833,2223.8611,3.884099
10.4500,553.8627,3691.6230,3732.9405,6.519791
10.5000,265.8539,5428.5981,5435.1041,9.492715
10.5500,-94.6726,7209.0830,7209.7046,12.592155
10.6000,-505.2946,8994.4658,9008.6480,15.734111
10.6500,-861.2502,10718.2168,10752.7635,18.780307
10.7000,-1148.6257,12298.6162,12352.1375,21.573704
10.7500,-1455.5182,13747.5244,13824.3611,24.145025
10.8000,-1841.1418,15073.8408,15185.8645,26.522967
10.8500,-2255.2202,16197.1777,16353.4273,28.562182
10.9000,-2630.8123,17075.5938,17277.0679,30.175372
10.9500,-3004.7273,17713.2207,17966.2621,31.379088
11.0000,-3420.4753,18095.0898,18415.5350,32.163769
11.0500,-3803.0549,18213.3691,18606.1829,32.496746
11.1000,-4060.4941,18065.9062,18516.6029,32.340289
11.1500,-4212.5522,17660.6973,18156.1511,31.710740
11.2000,-4322.6880,17027.8770,17567.9886,30.683481
11.2500,-4375.1274,16180.3418,16761.4200,29.274764
11.3000,-4298.8574,15106.1602,15705.9304,27.431292
11.3500,-4092.4160,13813.9307,14407.3783,25.163297
11.4000,-3842.6467,12347.8926,12931.9908,22.586450
11.4500,-3590.9004,10739.1504,11323.6000,19.777305
11.5000,-3268.9563,8990.2373,9566.1090,16.707748
11.5500,-2806.8096,7132.5396,7664.9397,13.387249
11.6000,-2252.0508,5240.2139,5703.6457,9.961738
11.6500,-1719.9368,3370.6274,3784.0867,6.609120
11.7000,-1228.8400,1541.0308,1970.9956,3.442455
11.7500,-709.9200,-226.2722,745.1077,1.301373
11.8000,-176.8696,-1888.3953,1896.6601,3.312624
11.8500,282.5393,-3373.9673,3385.7767,5.913450
11.9000,660.0276,-4594.1226,4641.2928,8.106279
11.9500,1027.0826,-5531.5991,5626.1432,9.826376
12.0000,1413.5995,-6216.6006,6375.2950,11.134812
12.0500,1755.7723,-6613.2407,6842.3453,11.950541
12.1000,1967.5228,-6656.7856,6941.4653,12.123660
12.1500,2047.0909,-6367.5000,6688.4705,11.681790
12.2000,2057.8123,-5842.0034,6193.8353,10.817882
12.2500,2023.3733,-5124.7949,5509.7697,9.623123
12.3000,1918.0597,-4165.4775,4585.8648,8.009471
12.3500,1730.7054,-2915.2676,3390.2989,5.921348
12.4000,1483.9744,-1388.2855,2032.1212,3.549214
12.4500,1210.1335,355.8754,1261.3764,2.203065
12.5000,910.7783,2263.6655,2440.0202,4.261633
12.5500,545.1990,4312.7280,4347.0525,7.592372
12.6000,95.2304,6486.9751,6487.6741,11.331088
12.6500,-394.8897,8765.5059,8774.3963,15.324977
12.7000,-884.8572,11097.9238,11133.1436,19.444662
12.7500,-1387.1099,13368.4912,13440.2616,23.474174
12.8000,-1920.4702,15436.4043,15555.4101,27.168400
12.8500,-2476.6399,17242.7324,17419.6890,30.424468
12.9000,-3039.4272,18825.7461,19069.5263,33.306001
12.9500,-3588.1782,20212.8516,20528.8673,35.854823
13.0000,-4109.9248,21352.7773,21744.7139,37.978367
13.0500,-4605.4385,22149.1680,22622.9022,39.512172
13.1000,-5048.0264,22559.1875,23117.0827,40.375286
13.1500,-5400.2139,22612.3398,23248.2305,40.604344
13.2000,-5662.9443,22316.8535,23024.1371,40.212952
13.2500,-5853.3472,21643.9141,22421.4337,39.160296
13.3000,-5967.3262,20604.7891,21451.4875,37.466231
13.3500,-5984.2710,19269.5684,20177.4073,35.240978
13.4000,-5903.4897,17680.5156,18640.0597,32.555914
13.4500,-5749.2510,15817.8418,16830.2705,29.395015
13.5000,-5534.1436,13692.6328,14768.7148,25.794392
13.5500,-5238.8330,11373.3643,12521.9322,21.870260
13.6000,-4832.0576,8925.7539,10149.7716,17.727148
13.6500,-4330.7788,6406.3154,7732.8211,13.505807
13.7000,-3798.5166,3853.2676,5410.7670,9.450209
13.7500,-3251.9417,1282.0604,3495.5405,6.105158
13.8000,-2639.5073,-1243.7125,2917.8451,5.096181
13.8500,-1927.6417,-3593.0129,4077.4434,7.121484
13.9000,-1157.3302,-5651.4434,5768.7282,10.075409
13.9500,-388.6345,-7400.8008,7410.9978,12.943725
14.0000,374.3602,-8870.4199,8878.3160,15.506479
14.0500,1153.6486,-9995.9131,10062.2653,17.574313
14.1000,1931.1641,-10637.5811,10811.4534,18.882812
14.1500,2654.0132,-10736.9355,11060.0891,19.317068
14.2000,3285.6702,-10365.4180,10873.7077,18.991543
14.2500,3833.2231,-9625.4980,10360.6859,18.095521
14.3000,4314.4380,-8523.7334,9553.4500,16.685638
14.3500,4714.3022,-7022.4233,8458.0775,14.772509
14.4000,5002.3711,-5187.2192,7206.3139,12.586233
14.4500,5170.6807,-3130.8303,6044.6701,10.557357
14.5000,5227.3467,-903.6954,5304.8863,9.265283
14.5500,5178.2153,1491.8033,5388.8210,9.411879
14.6000,5034.7275,4059.2522,6467.3031,11.295509
14.6500,4794.0073,6732.8760,8265.2359,14.435700
14.7000,4413.8706,9384.3213,10370.5226,18.112702
14.7500,3876.2864,11921.1836,12535.5580,21.894058
14.8000,3225.3408,14299.7705,14658.9993,25.602768
14.8500,2494.4624,16501.0059,16688.4852,29.147379
14.9000,1677.9333,18483.5449,18559.5499,32.415299
14.9500,784.8082,20159.1172,20174.3880,35.235704
15.0000,-141.9526,21465.5195,21465.9889,37.491558
15.0500,-1068.3712,22387.8418,22413.3192,39.146124
15.1000,-1999.9650,22915.0059,23002.1163,40.174491
15.1500,-2938.5701,23033.5508,23220.2424,40.555461
15.2000,-3846.6238,22737.1738,23060.2599,40.276042
15.2500,-4672.3560,22021.3945,22511.6132,39.317800
15.3000,-5389.3105,20886.7012,21570.7894,37.674598
15.3500,-6016.8438,19358.2090,20271.7208,35.405702
15.4000,-6560.0439,17489.0742,18678.9157,32.623778
15.4500,-6975.6797,15353.5615,16863.9248,29.453794
15.5000,-7226.0889,13021.6455,14892.2669,26.010183
15.5500,-7293.4868,10510.6914,12793.3414,22.344291
15.6000,-7175.9878,7812.4980,10608.0124,18.527491
15.6500,-6870.3794,4998.7236,8496.4317,14.839496
15.7000,-6367.1001,2219.3223,6742.8002,11.776680
15.7500,-5696.6685,-415.4760,5711.7993,9.975979
15.8000,-4915.2808,-2881.9060,5697.8388,9.951596
15.8500,-4046.4692,-5170.6763,6565.8058,11.467550
15.9000,-3067.1860,-7216.5337,7841.3002,13.695272
15.9500,-1962.5594,-8930.7432,9143.8402,15.970232
16.0000,-775.0053,-10250.0166,10279.2740,17.953331
16.0500,446.0092,-11139.5537,11148.4789,19.471446
16.1000,1689.9994,-11595.2266,11717.7377,20.465689
16.1500,2948.9868,-11607.7656,11976.5081,20.917646
16.2000,4168.4834,-11136.1846,11890.7889,20.767932
16.2500,5272.9224,-10174.4082,11459.5939,20.014826
16.3000,6238.1948,-8799.6074,10786.4807,18.839196
16.3500,7076.0244,-7102.0952,10025.4615,17.510033
16.4000,7760.0732,-5122.3789,9298.2527,16.239922
16.4500,8246.7656,-2900.3611,8741.9241,15.268263
16.5000,8538.1670,-513.2652,8553.5803,14.939310
16.5500,8644.2832,1956.7301,8862.9806,15.479695
16.6000,8545.6807,4462.0000,9640.4410,16.837573
16.6500,8245.5898,7001.1982,10816.9556,18.892422
16.7000,7776.7031,9536.0527,12305.0158,21.491403
16.7500,7156.2197,11928.8428,13910.7430,24.295896
16.8000,6384.9360,14042.6484,15426.0618,26.942486
16.8500,5452.1611,15834.8662,16747.2102,29.249946
16.9000,4353.5684,17334.4062,17872.7501,31.215764
16.9500,3128.4502,18563.4473,18825.2165,32.879300
17.0000,1835.7690,19469.5781,19555.9331,34.155538
17.0500,515.1879,19985.3652,19992.0045,34.917161
17.1000,-805.4308,20160.4551,20176.5376,35.239459
17.1500,-2099.7485,20087.5898,20197.0347,35.275258
17.2000,-3342.9058,19709.1465,19990.6347,34.914769
17.2500,-4505.8418,18921.7637,19450.8548,33.972013
17.3000,-5558.9082,17781.4844,18630.1542,32.538613
17.3500,-6486.5874,16414.5703,17649.7574,30.826295
17.4000,-7287.2554,14866.1016,16556.1187,28.916193
17.4500,-7952.1230,13087.4385,15313.9579,26.746690
17.5000,-8443.7158,11041.6523,13900.1591,24.277411
17.5500,-8726.3330,8803.8447,12395.8287,21.650013
17.6000,-8810.6816,6477.6328,10935.6224,19.099680
17.6500,-8723.5322,4124.2891,9649.3406,16.853117
17.7000,-8474.3828,1798.9839,8663.2273,15.130814
17.7500,-8052.6543,-460.3363,8065.8013,14.087376
17.8000,-7422.6284,-2615.3118,7869.8963,13.745217
17.8500,-6578.6968,-4584.9141,8018.7710,14.005235
17.9000,-5576.8379,-6281.7969,8400.1246,14.671291
17.9500,-4465.2368,-7673.6875,8878.2780,15.506412
18.0000,-3264.3259,-8780.6250,9367.7745,16.361346
18.0500,-2000.3486,-9590.9883,9797.3696,17.111658
18.1000,-706.5877,-10031.1504,10056.0054,17.563380
18.1500,579.7151,-10035.6436,10052.3734,17.557036
18.2000,1830.2158,-9617.4170,9790.0153,17.098813
18.2500,3029.2002,-8868.4678,9371.5407,16.367923
18.3000,4148.6689,-7840.7207,8870.6457,15.493082
18.3500,5142.9253,-6481.4058,8273.9532,14.450925
18.4000,5977.2188,-4741.6963,7629.6021,13.325530
18.4500,6656.6167,-2691.4226,7180.1324,12.540506
18.5000,7202.5420,-514.6931,7220.9085,12.611723
18.5500,7595.6152,1672.4607,7777.5636,13.583953
18.6000,7780.8911,3923.6602,8714.2054,15.219850
18.6500,7732.8364,6274.4351,9958.1773,17.392517
18.7000,7480.2759,8616.2773,11410.2920,19.928717
18.7500,7054.3242,10795.3076,12895.8194,22.523275
18.8000,6447.8911,12768.5762,14304.2594,24.983194
18.8500,5662.9346,14605.1875,15664.6203,27.359141
18.9000,4739.0586,16268.5615,16944.7564,29.594971
18.9500,3705.8479,17585.9688,17972.1898,31.389441
19.0000,2568.4604,18476.2090,18653.8813,32.580054
19.0500,1334.9813,18992.7617,19039.6211,33.253770
19.1000,40.0893,19172.6992,19172.7411,33.486272
19.1500,-1262.0286,18962.9141,19004.8632,33.193064
19.2000,-2538.0188,18312.7168,18487.7564,32.289907
19.2500,-3775.0950,17268.1680,17675.9997,30.872129
19.3000,-4955.5703,15888.3701,16643.2564,29.068384
19.3500,-6045.1890,14175.8662,15411.0185,26.916212
19.4000,-6999.4644,12148.4561,14020.6093,24.487784
19.4500,-7794.1099,9878.1006,12582.7270,21.976441
19.5000,-8427.6357,7438.9336,11241.1199,19.633249
19.5500,-8879.5635,4868.9805,10126.8760,17.687159
